     -30.21617    2.002663354   0.4315800498
     -29.76617    1.849912539   0.4204477207
     -29.31617    1.575272615   0.3945903397
     -28.86617    2.197601321   0.5733226072
     -28.41617    1.767611795   0.3996223317
     -27.96617    1.716763204   0.4075118283
     -27.51617    1.776877049   0.4736055647
     -27.06617    1.505337647   0.3794166251
     -26.61617    2.268915494    0.466115987
     -26.16617    1.758373196   0.3745069105
     -25.71617      2.7597817   0.4972773253
     -25.26617    2.217904663    0.444091929
     -24.81617    2.302005878   0.4644846374
     -24.36617    2.226721824   0.4546646162
     -23.91617    2.682095317   0.5011277181
     -23.46617    2.392845934   0.4670593677
     -23.01617    2.670434703   0.4928530207
     -22.56617    3.064549036   0.5791977905
     -22.11617    2.761629276   0.5083926132
     -21.66617    3.031298983   0.5256796874
     -21.21617    2.585962559   0.4791253015
     -20.76617    3.882005086   0.6352571173
     -20.31617    3.319130885   0.5892794317
     -19.86617    4.341602437   0.6275916288
     -19.41617    3.499305442   0.5532959423
     -18.96617      4.0104511    0.597444268
     -18.51617    4.998177431   0.6693561717
     -18.06617    5.603823575   0.7096904859
     -17.61617    5.419131102   0.7396392195
     -17.16617    5.500270176   0.6952741303
     -16.71617    5.148663926   0.7227487104
     -16.26617    5.793673645   0.7596917926
     -15.81617    8.294488508   0.8882224605
     -15.36617    8.697034771   0.8972857682
     -14.91617     9.27234415    0.921195874
     -14.46617    9.924549776   0.9656886208
     -14.01617    11.55619003    1.058303639
     -13.56617    12.64807949    1.058585382
     -13.11617    12.84052418    1.132205313
     -12.66617     17.6003632    1.332208676
     -12.21617    18.61539892    1.349674393
     -11.76617    20.89728339    1.449495864
     -11.31617    26.15748261    1.635838063
     -10.86617    29.41645303    1.730911381
     -10.41617     34.8300197    1.853045955
      -9.96617    42.14363543    2.087157923
      -9.51617    46.68139262    2.147845555
      -9.06617    55.32949481    2.380943395
      -8.61617    71.02742875    2.646437918
      -8.16617    87.15991353    2.927907874
      -7.71617    107.1860152    3.215178928
      -7.26617    121.0306085    3.487483129
      -6.81617    153.4485415    3.908963927
      -6.36617    183.0038184    4.249347783
      -5.91617    221.5985283    4.731596419
      -5.46617    267.4548453     5.14817823
      -5.01617    314.9572309    5.600610114
      -4.56617    354.8125533    5.916214827
      -4.11617    406.8890705    6.413189657
      -3.66617      458.19644    6.826186576
      -3.21617    490.4266588    7.034839773
      -2.76617    535.7981345    7.321284748
      -2.31617    568.2797088    7.596867324
      -1.86617    617.1989053    7.951119973
      -1.41617    643.3379505    8.036854042
      -0.96617    680.8449745    8.304831664
      -0.51617    671.7730475    8.147398903
      -0.06617    689.8097371     8.30399047
       0.38383    693.2636757    8.329735666
       0.83383    694.7058377    8.395444634
       1.28383     659.429046     8.12916091
       1.73383     645.362662    8.023200002
       2.18383    619.1543908    7.921818911
       2.63383     553.637733    7.450308673
       3.08383    535.2641622    7.223285838
       3.53383    474.3989234    6.876598954
       3.98383    424.1084207    6.490131813
       4.43383       379.3708    6.178896413
       4.88383     327.939781    5.728421139
       5.33383    268.9031274    5.138008199
       5.78383    228.4734189    4.740650416
       6.23383    178.4517586    4.113801183
       6.68383    151.2277935     3.87674706
       7.13383     122.866938    3.482071644
       7.58383    98.32585986     3.12960468
       8.03383    72.75545169    2.629734355
       8.48383    65.79632617    2.494844188
       8.93383    54.24174931    2.309466654
       9.38383    46.30019157    2.145136374
       9.83383    40.58347474    1.992109497
      10.28383     36.0458984    1.926640374
      10.73383    31.92080946    1.747421566
      11.18383    28.89209148    1.681177177
      11.63383    29.01058985    1.673611286
      12.08383      24.450683    1.545496845
      12.53383    26.47470619    1.605969908
      12.98383    19.78829128    1.389625374
      13.43383    19.53418151    1.409145658
      13.88383    22.56966821    1.571465615
      14.33383    16.56801605    1.227821473
      14.78383    19.38734257    1.333888059
      15.23383    16.17372733    1.220245402
      15.68383     16.0519133    1.241446545
      16.13383    16.14555127    1.270489477
      16.58383    17.19689406     1.36924159
      17.03383    15.98909762     1.24930743
      17.48383     14.8381597    1.195560909
      17.93383    15.74589161    1.237389573
      18.38383    16.39478285    1.235992909
      18.83383    15.61955056    1.230921442
      19.28383    13.66568553    1.156459462
      19.73383     17.1237303    1.309048761
      20.18383    18.31079986    1.348493543
      20.63383    20.84821768    1.427545015
      21.08383    20.02332737     1.35838187
      21.53383    23.72977637    1.517372824
      21.98383    18.81563382    1.317591954
      22.43383    22.84133753    1.520396865
      22.88383    23.86328253    1.503573404
      23.33383    23.59114234    1.521087882
      23.78383    23.03046102    1.528535422
      24.23383    28.45261561    1.723128783
      24.68383    25.20617178    1.532688782
      25.13383    26.18623822    1.628990712
      25.58383    26.61780755    1.522438964
      26.03383    23.94423433     1.51211335
      26.48383     23.3715431    1.483806559
      26.93383    24.82691482    1.500047014
      27.38383    22.53333155     1.46503653
      27.83383    23.68831431    1.524358399
      28.28383     19.9763701    1.390932071
      28.73383    19.48630384    1.410874637
      29.18383     16.7111643    1.238056616
      29.63383    17.34683459    1.314741754
      30.08383    15.16064624    1.172553141
      30.53383     13.3925844    1.155145982
      30.98383    12.64025522    1.151927081
      31.43383    13.47668348    1.132287649
      31.88383    12.22089791    1.057531258
      32.33383     10.6566522   0.9901909866
      32.78383    11.87909855    1.084525092
      33.23383    12.74604191    1.139158348
      33.68383    12.15905736    1.034133767
      34.13383     12.6717546    1.136020873
      34.58383    13.28789784    1.134397095
      35.03383    14.11593075    1.177107827
      35.48383    16.18329091    1.249319356
      35.93383    16.82326903    1.344494514
      36.38383     16.4375274    1.291601443
      36.83383    19.94298221    1.419503128
      37.28383    18.94859523    1.335530333
      37.73383    20.57389687     1.43755202
      38.18383    20.44135541    1.406374229
      38.63383    20.89592797    1.425767731
      39.08383    24.41058709     1.52219944
      39.53383    23.41643165    1.433671674
      39.98383    23.31479076     1.51733595
      40.43383    22.27564633    1.385346761
      40.88383    23.81470065    1.525522996
      41.33383    20.94544499    1.375610144
      41.78383    20.25354583    1.405413541
      42.23383    20.70864052    1.454507593
      42.68383    19.87688463    1.509119217
      43.13383    15.91920049    1.202047985
      43.58383     14.5026845    1.160503617
      44.03383    14.30838952    1.217259718
      44.48383    11.76983826    1.091922706
      44.93383    10.64932742    1.065702608
      45.38383    8.852057005   0.8628416548
      45.83383    9.613717446   0.9630984669
      46.28383    8.450525899   0.8995488638
      46.73383    7.147469945   0.8290048494
      47.18383    7.473135629   0.8837340404
      47.63383    6.033768465   0.7734396805
      48.08383    6.925478257   0.8370510744
      48.53383    7.014400278   0.8344744971
      48.98383    6.369156934   0.7998361365
      49.43383    6.934103537    0.830402057
      49.88383    7.012530153   0.8305465281
      50.33383    6.107351516   0.8275455015
      50.78383    8.105537875   0.8573970738
      51.23383    7.008042122   0.8345926185
      51.68383    6.824114372   0.8215938357
      52.13383    6.564001807   0.7895089223
      52.58383    6.290974921   0.7622016642
      53.03383    6.065380419   0.7545814484
      53.48383    5.996458249   0.7379527375
      53.93383    5.723274288   0.7660974824
      54.38383    5.491855439   0.7569169132
      54.83383    5.657445636   0.7800007376
      55.28383    5.125395862   0.6815742366
      55.73383    5.834616761   0.7775759768
      56.18383    3.820409716   0.6039794928
      56.63383    4.710380184   0.6884928114
      57.08383    2.988837448   0.5082210672
      57.53383    4.641099505   0.7069991317
      57.98383    4.173579939    0.593401427
      58.43383    3.615164926   0.6252308938
      58.88383    4.732962487   0.6540853235
      59.33383    4.611963642   0.7052657817
      59.78383    4.933173982   0.7740106176
      60.23383    4.020762441   0.6179700526
      60.68383    3.813694584   0.6151676178
      61.13383    3.122498487   0.5938556914
      61.58383    5.161738532   0.7441207059
      62.03383    3.710274149   0.6954283875
      62.48383    3.728209619   0.6454412936
      62.93383    4.403338057   0.7342756365
      63.38383    3.127979335   0.6103128909
      63.83383    4.582324302   0.6547313351
      64.28383    3.485280206    0.600044878
      64.73383    4.654962559   0.7563739996
      65.18383    4.452876589   0.7315748111
      65.63383    4.854368625   0.7133568184
      66.08383    5.166769615   0.7822941421
      66.53383    5.713704949   0.7311274887
      66.98383    4.432034966   0.6934511371
      67.43383    4.407700058   0.7076726896
      67.88383    3.590434952   0.5774870099
      68.33383    4.727450287   0.6743804173
      68.78383    5.372327041    0.738160968
      69.23383    4.590605159   0.6862362647
      69.68383    5.857693305   0.7827553578
      70.13383    4.423291973   0.6990921024
      70.58383    3.879829817   0.6712573683
      71.03383    4.604538556   0.6609635216
      71.48383    3.267898139   0.5528444593
      71.93383     3.45374101   0.5789917366
      72.38383    4.770211741   0.7391892744
      72.83383    3.557020874   0.6607847266
      73.28383    3.921876659    0.634808581
      73.73383    3.970670019   0.6331119472
      74.18383    3.538840161   0.6410675369
      74.63383    3.465063371   0.5781242284
      75.08383     3.07606067   0.5608790663
      75.53383     3.50718619   0.6528286814
      75.98383    3.267141676   0.6244930359
      76.43383    2.824322132   0.5407162837
      76.88383    3.613744075    0.713090441
      77.33383    4.202061645   0.7110895291
      77.78383    2.205736998    0.467512946
      78.23383    4.783763546   0.7562803355
      78.68383    3.813295245   0.7015723647
      79.13383    3.519488799   0.6592628206
      79.58383    3.117126342   0.5523792396
      80.03383     4.20504352    0.772326232
      80.48383    3.249083123   0.6295969044
      80.93383    3.986562955   0.7127493234
      81.38383    5.182685754   0.8829932176
      81.83383    3.606566676   0.6813805152
      82.28383    3.194795373   0.5884845771
      82.73383     2.63862496   0.5893172346
      83.18383    2.797848354    0.620443672
      83.63383    3.667965662   0.6027679476
      84.08383     2.01852724   0.5446220083
      84.53383    3.522379027   0.7403361056
      84.98383    3.080683208   0.6398793784
      85.43383    1.782255587   0.4461962667
      85.88383    2.634429832   0.5265578829
      86.33383     3.79187446   0.7487247602
      86.78383    3.528938613   0.6096845535
      87.23383    3.204799148   0.5748992265
      87.68383    2.472442187   0.5910315242
      88.13383    2.726410172   0.5997237128
      88.58383    2.634827678   0.6800225812
      89.03383    2.599080372   0.5466531633
      89.48383     2.71270404   0.5579129974
      89.93383    1.925722665   0.4420792604
      90.38383    3.084351618   0.5729208454
      90.83383    3.071712766   0.6373091438
      91.28383    2.638183861   0.5303737455
      91.73383    2.678330575   0.6980924468
      92.18383    2.266435026   0.4987247263
      92.63383    2.972316803   0.6620407197
      93.08383    2.826569618   0.5861566546
      93.53383    3.108168203   0.5982862532
      93.98383    2.969205343     0.64484519
      94.43383    2.093756013   0.5036422187
      94.88383    1.982287189   0.4852356562
      95.33383    1.524140886   0.4096933475
      95.78383    2.205017542   0.6840083867
      96.23383    1.875530731   0.5549697943
      96.68383    1.683162197   0.5794257403
      97.13383    2.379076562   0.5426963928
      97.58383    1.811295194   0.5731324995
      98.03383    1.916909552   0.4788683282
      98.48383     1.80362619   0.4702620709
      98.93383    1.806694274   0.4822537532
      99.38383    1.731446615   0.5740291329
      99.83383    1.343910429    0.398661783
     100.28383     2.51862802   0.5744476879
     100.73383     1.39698359   0.4331225899
     101.18383    1.287438626   0.3982866225
     101.63383    1.712302599   0.4875473162
     102.08383    2.403213284   0.6622946603
     102.53383    2.201354913   0.6597455298
     102.98383    1.566666964   0.4585601916
     103.43383     2.07003685   0.6090546382
     103.88383    1.544916799   0.4880395802
     104.33383     2.46372599   0.5880032773
     104.78383    1.180382222   0.4100592813
     105.23383    2.034209049   0.5335938236
     105.68383    2.383553567   0.6932176025
     106.13383    1.944145432   0.5234513721
     106.58383     1.63390746   0.5910531569
     107.03383    1.954643158   0.5022566872
     107.48383    2.196043601   0.5792530354
     107.93383   0.8892365999   0.3436892818
     108.38383    1.375401525   0.4374612753
     108.83383    2.396646348   0.6938557236
     109.28383   0.6022930421   0.3018778475
     109.73383    2.151473961   0.5460667852
     110.18383    1.132283448   0.4051699839
     110.63383    2.154429799   0.7024367418
     111.08383    2.283577252   0.5674727979
     111.53383    2.374668365   0.6186279882
     111.98383     1.62669649   0.4954464249
     112.43383    1.909213662    0.507881852
     112.88383    2.808767958   0.6565114873
     113.33383    3.723945168   0.7556349565
     113.78383     3.64818312   0.7454775933
     114.23383    5.664309038    1.156042415
     114.68383    7.512779373    1.169823907
     115.13383    11.81263289    1.581205826
     115.58383    13.87707134    1.620389623
     116.03383    13.79133759    1.598804565
     116.48383    10.36475161    1.279525182
     116.93383    16.08419033    1.894056198
     117.38383    16.17226281    1.997709838
     117.83383    13.10038434    1.640558178
     118.28383    9.671470827    1.379030412
     118.73383     7.94617063     1.54271425
     119.18383    6.528789614     1.09730796
     119.63383      3.9571712   0.8938619793
     120.08383    3.225593958    1.130467363
     120.53383    1.953255797   0.5684269946
     120.98383     2.39418593   0.9165310979
     121.43383    1.060947671   0.4731069397
     121.88383   0.9502409763   0.4562634847
     122.33383   0.5914361292   0.3603159934
     122.78383    1.095319276   0.5194554994
     123.23383    1.319331621   0.6154830912
     123.68383    1.375524499   0.5597465601
     124.13383    0.783739321   0.4141327291
     124.58383   0.9776968101   0.5489115624
     125.03383   0.6976912472   0.4781833085
     125.48383     0.55251337   0.3940425761
     125.93383   0.1080418839   0.3003312356
     126.38383   0.1939628171   0.3070320083
     126.83383   0.3211612402   0.3868481886
     127.28383    1.235532781   0.8224732983
     127.73383    1.278814764   0.6331700407
     128.18383  0.00978238084   0.3696995499
     128.63383   0.5429996125   0.5539380533
     129.08383    2.241922276    1.251332439
     129.53383    5.578542066    3.003113604
     129.98383    3.103665164    3.139405945
     130.43383  -0.8088692642   0.1249819792
     130.88383    9.531627167       7.861638
